time(s),emg01,emg02,emg03,emg04,emg05,emg06,emg07,emg08
1.3015787601470947,25,20,28,36,37,25,24,21
1.3257617950439453,23,21,28,32,39,24,25,23
1.3452632427215576,24,23,29,28,40,27,25,25
1.3620142936706543,23,23,27,28,42,26,24,28
1.3793840408325195,24,25,29,30,42,24,24,27
1.4026494026184082,26,25,33,25,45,25,22,28
1.418595552444458,25,24,32,26,41,25,23,28
1.439168930053711,26,21,30,29,40,22,24,28
1.4625580310821533,27,22,29,30,39,23,24,23
1.485353946685791,27,21,34,31,39,24,26,27
1.5021817684173584,24,22,30,32,36,23,27,28
1.5228290557861328,25,22,32,30,38,23,27,26
1.5372769832611084,24,22,31,29,36,23,28,25
1.559164047241211,24,22,35,29,39,24,26,25
1.5828161239624023,22,23,29,25,39,24,26,23
1.6049549579620361,24,23,30,30,40,24,27,21
1.6215605735778809,24,23,29,31,42,23,27,21
1.642793893814087,23,24,30,33,43,26,24,22
1.6589655876159668,22,24,27,34,41,24,26,26
1.6796855926513672,24,24,25,35,43,24,27,25
1.7028987407684326,21,24,27,32,42,24,26,26
1.7206013202667236,21,25,27,32,38,25,27,32
1.7394299507141113,21,25,28,30,39,23,26,32
1.7624964714050293,22,26,28,26,40,22,26,28
1.7799570560455322,21,26,31,27,39,22,25,29
1.799950122833252,21,26,30,26,37,23,25,33
1.8219540119171143,20,26,28,26,38,20,25,30
1.8380470275878906,22,26,28,27,40,21,26,30
1.8597073554992676,22,25,27,28,38,22,26,30
1.8819255828857422,23,23,25,28,41,25,24,31
1.897331714630127,23,22,23,28,46,24,24,28
1.9199535846710205,26,20,24,28,48,25,22,27
1.9417219161987305,24,21,23,25,45,24,22,26
1.9650030136108398,22,19,25,25,46,25,23,27
1.9794995784759521,20,23,27,22,43,27,25,27
2.00174880027771,21,24,29,21,41,27,25,28
2.0252633094787598,20,25,30,21,38,27,27,27
2.0400636196136475,22,24,31,23,38,27,26,28
2.0617315769195557,25,24,30,22,36,29,26,26
2.0851452350616455,26,21,30,24,37,25,27,25
2.0999162197113037,29,21,29,25,35,25,26,23
2.1218883991241455,28,21,29,27,34,25,26,23
2.144829750061035,28,21,30,27,38,24,28,22
2.1594903469085693,26,22,32,29,41,23,27,21
2.1817779541015625,25,20,33,29,42,24,25,22
2.2055184841156006,21,21,33,30,41,23,26,24
2.227699041366577,22,24,34,28,43,23,23,24
2.2444875240325928,21,25,33,29,43,25,22,26
2.2656619548797607,20,27,32,30,40,24,21,27
2.287691831588745,22,29,29,31,37,23,21,26
2.3031692504882812,20,31,31,32,40,24,21,26
2.32521390914917,19,30,29,32,41,26,24,26
2.3480067253112793,19,28,28,32,38,26,23,23
2.3652219772338867,19,27,24,29,39,27,25,23
2.385155200958252,17,27,28,28,38,27,26,24
2.4074838161468506,20,28,27,29,37,27,23,21
2.422299385070801,20,27,28,28,36,25,21,23
2.444981575012207,23,31,29,26,38,23,21,23
2.467555046081543,25,30,31,28,41,26,22,23
2.490644693374634,26,29,29,29,46,27,24,23
2.5076053142547607,28,26,30,27,43,28,25,28
2.5274572372436523,28,26,30,30,42,27,26,27
2.5503783226013184,27,24,31,29,42,26,25,28
2.566066265106201,25,25,33,29,42,22,26,29
2.587141275405884,26,25,32,28,35,22,28,28
2.6100783348083496,23,23,31,29,36,21,28,28
2.6274423599243164,24,24,29,27,39,23,27,31
2.6473300457000732,23,23,28,29,40,22,27,30
2.6705641746520996,29,24,24,53,36,25,25,29
2.685049533843994,26,33,24,56,38,26,24,30
2.707449197769165,27,33,27,56,40,26,25,29
2.7303972244262695,28,33,34,57,39,25,26,26
2.7524538040161133,28,33,34,63,35,26,26,26
2.7680275440216064,22,32,34,67,41,25,27,29
2.7900173664093018,25,23,36,75,62,36,24,29
2.8078155517578125,29,27,38,112,104,37,27,28
2.8274478912353516,30,27,33,113,129,73,27,29
2.8504953384399414,30,27,34,142,137,80,30,30
2.8722896575927734,32,31,39,158,143,83,32,28
2.888721227645874,32,32,40,168,150,79,34,26
2.909771680831909,31,29,40,184,162,82,37,26
2.927243709564209,36,32,43,190,157,58,99,33
2.9473400115966797,40,34,42,188,153,49,103,32
2.969778299331665,37,34,39,190,155,48,108,34
2.992567300796509,42,34,45,202,162,56,110,34
3.009660005569458,40,36,43,177,134,51,110,34
3.029959201812744,35,34,44,174,154,46,63,26
3.0474727153778076,32,32,44,170,172,50,61,28
3.067824125289917,39,31,45,162,172,54,77,32
3.0899910926818848,35,35,39,153,158,49,83,32
3.104593276977539,37,37,40,177,170,51,102,34
3.1273574829101562,36,41,38,182,148,55,104,37
3.150581121444702,38,44,40,201,138,53,108,39
3.164214849472046,36,45,41,204,131,57,108,39
3.187314748764038,37,41,40,192,128,57,131,40
3.2104709148406982,39,47,42,178,106,63,127,41
3.2270219326019287,38,59,41,173,105,65,127,40
3.2473134994506836,36,59,42,157,92,64,127,40
3.270076274871826,36,62,41,148,97,57,122,37
3.284266471862793,39,65,46,184,100,59,106,37
3.3073244094848633,34,60,47,206,102,57,127,38
3.330467939376831,37,46,47,205,94,57,132,44
3.3479578495025635,41,47,47,207,91,56,137,46
3.3675637245178223,39,43,51,202,83,55,132,47
3.3902382850646973,34,41,51,174,79,51,119,47
3.4132213592529297,34,43,51,156,96,44,104,46
3.431532621383667,31,41,50,155,98,42,99,44
3.4506287574768066,24,39,46,146,106,44,87,40
3.4724464416503906,27,40,40,158,114,52,87,41
3.487553358078003,31,36,35,183,111,51,93,41
3.510218381881714,32,36,37,173,91,57,88,46
3.5327134132385254,35,35,36,174,86,54,90,44
3.5482404232025146,38,33,37,165,85,53,94,44
3.5698044300079346,40,33,43,217,75,55,97,43
3.5924832820892334,40,35,45,232,72,61,111,49
3.6082284450531006,45,34,39,234,69,59,125,70
3.62980055809021,45,36,45,250,70,65,142,71
3.652330160140991,43,37,47,264,66,67,141,74
3.6678128242492676,43,39,48,228,78,65,138,75
3.6899924278259277,42,38,46,190,78,59,122,72
3.7130651473999023,40,40,54,181,78,60,94,50
3.727494955062866,39,38,57,161,74,64,53,47
3.749850273132324,39,40,68,129,64,131,56,45
3.7727763652801514,35,37,74,151,59,176,70,52
3.787580966949463,34,38,74,148,58,238,97,54
3.809953451156616,32,42,70,149,62,302,111,60
3.8326945304870605,36,43,67,148,73,336,124,61
3.8469269275665283,40,43,69,145,74,450,152,77
3.8700931072235107,44,49,63,109,71,525,162,78
3.8926353454589844,48,53,68,110,75,542,153,85
3.9099996089935303,49,54,67,100,84,584,149,90
3.929866313934326,48,54,70,94,77,706,159,99
3.9531590938568115,54,54,67,101,74,714,136,100
3.9684762954711914,61,59,74,88,73,697,133,105
3.9899771213531494,62,56,72,82,74,711,155,141
4.0128490924835205,69,56,75,83,60,719,165,171
4.030655145645142,73,61,86,84,59,650,181,192
4.050216913223267,74,72,98,88,62,672,191,207
4.07246470451355,76,74,124,153,60,688,187,224
4.088550567626953,71,81,131,166,55,753,191,242
4.110004663467407,66,88,140,179,58,757,220,234
4.132385015487671,67,86,159,202,64,825,241,295
4.14819598197937,65,92,164,222,69,796,251,304
4.17026686668396,59,88,164,206,67,757,258,299
4.192761182785034,67,109,178,263,67,781,254,290
4.210537672042847,67,122,194,322,68,853,232,287
4.230433702468872,64,123,179,313,64,760,185,209
4.252151250839233,61,122,178,347,59,736,192,211
4.266973495483398,61,125,164,348,61,801,241,283
4.290142297744751,63,117,164,312,65,827,269,301
4.312413215637207,70,114,149,316,62,830,332,350
4.329497814178467,73,122,167,371,64,920,373,379
4.349998474121094,75,127,182,388,66,997,379,380
4.380748271942139,77,127,215,383,67,1038,361,342
4.400899887084961,73,120,240,441,62,954,336,319
4.416760683059692,67,114,255,423,59,868,280,265
4.434223413467407,69,109,258,386,60,825,225,231
4.455019950866699,67,98,272,359,57,787,214,221
4.4704368114471436,66,107,259,394,56,703,205,196
4.491490364074707,69,123,256,427,67,798,240,248
4.514402389526367,71,122,239,462,69,866,248,256
4.540220499038696,69,130,233,515,65,885,262,267
4.55606746673584,74,135,229,605,67,887,278,289
4.574376821517944,78,139,224,593,70,1015,330,338
4.592804908752441,89,126,201,533,69,1033,327,323
4.611737012863159,96,122,204,490,69,1009,329,320
4.63456392288208,99,110,198,465,71,981,328,304
4.660653352737427,100,111,175,337,67,1063,347,324
4.67660927772522,142,106,164,332,68,974,304,284
4.694352388381958,210,106,141,332,61,855,303,282
4.712834119796753,302,119,145,352,60,782,367,488
4.731731414794922,318,124,138,375,59,724,395,526
4.75408148765564,342,121,135,395,61,479,363,556
4.776507616043091,418,127,141,464,58,307,357,556
4.796077013015747,398,121,144,517,71,256,348,546
4.814154624938965,350,116,140,698,73,252,293,366
4.836808681488037,344,126,176,740,85,258,258,311
4.856216669082642,328,121,165,755,108,213,253,185
4.87414026260376,210,104,158,757,110,186,240,169
4.896621465682983,186,111,167,861,148,193,223,151
4.915651559829712,155,100,162,719,149,167,173,144
4.93792200088501,131,78,111,649,160,113,149,135
4.956808090209961,117,70,100,622,147,102,139,111
4.975401878356934,105,70,94,580,148,110,170,121
4.994201898574829,128,60,72,336,101,96,186,136
5.016570329666138,122,56,58,327,95,91,185,140
5.031769752502441,123,57,59,329,77,108,190,136
5.054216146469116,135,68,69,334,76,129,205,166
5.073324680328369,147,65,62,339,76,126,245,157
5.0954694747924805,129,68,67,402,76,128,239,144
5.1141815185546875,134,70,78,404,79,142,265,197
5.133955955505371,135,67,76,402,74,131,298,210
5.155370235443115,116,56,70,418,70,125,289,197
5.1742589473724365,97,61,74,439,64,131,238,189
5.1932902336120605,99,58,73,392,63,174,237,203
5.215234041213989,96,59,64,400,69,175,219,160
5.234537601470947,103,56,68,387,59,195,178,155
5.253790378570557,105,54,65,355,62,194,164,144
5.27559232711792,98,53,59,296,58,190,155,139
5.294740438461304,91,48,54,287,55,152,154,132
5.317448377609253,85,44,48,247,43,142,134,113
5.335411787033081,78,47,51,255,44,110,120,103
5.354637145996094,72,44,50,226,43,102,122,103
5.37683892250061,67,42,49,221,46,92,114,105
5.395687818527222,60,43,46,208,45,80,94,69
5.414577484130859,61,43,52,218,46,81,90,69
5.436964511871338,57,43,47,202,52,88,69,60
5.455341815948486,49,46,48,224,54,104,66,53
5.474276781082153,49,43,48,222,54,114,60,53
5.496509790420532,55,44,48,204,55,132,63,59
5.515341281890869,56,45,45,186,55,175,61,58
5.534735441207886,53,42,46,169,54,245,58,61
5.556716680526733,53,42,54,127,53,263,65,67
5.575653791427612,55,41,62,102,60,268,69,69
5.594269752502441,49,40,64,105,71,272,73,74
5.617110252380371,46,39,63,102,77,279,75,101
5.6366496086120605,51,45,61,98,81,266,123,233
5.654249429702759,55,48,73,84,79,268,126,252
5.6766417026519775,57,47,73,92,77,282,132,291
5.695683002471924,60,48,76,89,73,296,133,331
5.714172124862671,58,51,76,89,65,273,141,330
5.736802816390991,53,48,81,97,58,255,117,291
5.755276441574097,55,45,101,107,64,439,167,391
5.774548530578613,65,47,106,93,64,563,198,386
5.796724081039429,74,49,117,101,61,616,204,365
5.81542181968689,74,51,159,159,66,727,247,388
5.834477186203003,75,59,160,192,72,780,275,408
5.85665488243103,75,71,148,197,69,891,265,330
5.875265598297119,70,77,150,217,74,940,277,377
5.894270896911621,59,77,150,256,77,918,297,388
5.924206256866455,65,84,135,324,76,881,268,368
5.939526796340942,65,78,139,314,70,880,236,325
5.955638647079468,70,70,152,317,67,716,242,337
5.977225065231323,69,69,169,325,55,637,200,270
5.9952733516693115,68,75,174,330,54,663,167,247
6.0143656730651855,68,66,165,247,51,644,162,267
6.0444440841674805,65,73,163,291,55,622,166,272
6.059788942337036,57,74,152,298,66,597,138,234
6.076125383377075,56,72,132,296,67,576,149,220
6.096739768981934,59,74,137,316,286,576,180,269
6.115617752075195,55,75,136,319,308,598,181,257
6.134141683578491,55,76,133,284,314,567,175,250
6.156940460205078,58,85,138,302,318,595,177,240
6.177256345748901,56,87,138,333,320,531,175,246
6.195176362991333,54,82,123,286,165,513,164,208
6.217031240463257,53,88,122,339,122,426,160,202
6.235450267791748,64,91,130,365,105,405,165,219
6.254801034927368,67,83,125,356,87,340,158,250
6.276486873626709,66,80,138,355,78,359,162,284
6.299495220184326,70,83,148,377,60,348,146,277
6.314144134521484,72,75,138,362,58,367,147,276
6.336571455001831,73,67,133,358,55,365,165,298
6.35951828956604,67,67,125,363,57,350,161,269
6.374922037124634,65,65,110,377,53,315,143,222
6.3966920375823975,58,59,118,372,54,254,158,247
6.420095682144165,53,59,133,362,51,241,154,252
6.434298992156982,47,57,134,339,52,262,143,237
6.456617593765259,48,56,155,336,50,271,155,258
6.483266115188599,50,65,167,333,52,286,163,257
6.498408317565918,54,72,172,320,50,286,148,255
6.517345190048218,59,71,161,295,51,280,148,244
6.539349317550659,55,69,158,295,46,254,139,232
6.5542027950286865,63,78,184,309,44,250,142,230
6.576694965362549,68,78,175,270,43,237,164,245
6.599493741989136,68,71,156,264,40,239,153,207
6.61440372467041,71,73,154,259,35,224,161,225
6.636732816696167,68,80,153,282,40,228,169,225
6.65931510925293,67,85,106,266,43,247,158,221
6.674821853637695,65,86,114,283,43,241,131,212
6.6970624923706055,63,84,108,283,46,244,129,213
6.720234394073486,68,90,121,346,49,252,140,212
6.736724615097046,75,117,130,396,49,314,182,266
6.761245250701904,76,112,135,411,47,295,185,259
6.779245615005493,76,108,129,423,47,278,188,264
6.8000335693359375,78,109,129,430,49,275,200,279
6.816919803619385,102,109,121,394,45,292,200,283
6.839234352111816,197,81,117,323,42,218,157,247
6.856269121170044,244,70,105,304,45,211,250,302
6.877297401428223,266,68,103,265,46,209,335,432
6.89919376373291,306,75,123,308,68,207,440,549
6.916999340057373,385,75,125,377,83,164,489,548
6.936729431152344,364,83,125,501,85,162,541,576
6.959133148193359,351,86,132,571,89,149,518,595
6.974473714828491,338,93,135,590,98,159,474,506
6.9970033168792725,303,87,114,578,184,163,376,374
7.01925802230835,180,83,113,544,199,160,305,360
7.038771152496338,137,67,107,471,214,141,195,289
7.0565502643585205,81,61,88,385,215,140,145,164
7.079420566558838,63,49,71,382,216,123,115,159
7.095211744308472,61,47,70,386,146,86,113,115
7.1167168617248535,56,40,52,392,120,74,93,104
7.139057874679565,60,37,49,340,103,67,79,90
7.154986619949341,56,36,43,319,100,64,77,81
7.177270412445068,50,36,45,273,90,54,68,56
7.199538946151733,45,37,61,229,82,62,42,52
7.221968650817871,42,44,97,194,80,139,53,65
7.236637115478516,42,52,107,196,70,292,81,140
7.259161949157715,64,71,123,223,90,476,170,302
7.28226375579834,121,93,152,301,97,644,276,356
7.302729368209839,161,126,184,344,100,864,553,562
7.319586515426636,185,146,233,474,117,1015,624,637
7.341707944869995,205,163,245,492,126,1085,677,727
7.3590614795684814,222,184,278,540,131,1171,751,791
7.379486083984375,214,187,320,563,127,1162,778,859
7.402083873748779,188,172,319,557,129,1069,624,752
7.417337894439697,169,159,278,442,116,1007,563,698
7.439387559890747,388,153,273,427,106,955,522,658
7.470409631729126,416,126,241,367,85,786,399,561
7.485414981842041,424,109,161,283,88,683,293,433
7.500425100326538,440,104,123,269,80,593,291,480
7.521805047988892,472,100,134,266,71,429,294,594
7.536834955215454,332,78,117,261,71,327,262,578
7.559183835983276,286,65,105,240,66,363,251,554
7.581909418106079,269,59,101,204,68,366,221,546
7.598292827606201,248,50,99,157,71,360,195,493
7.619394779205322,175,44,80,148,73,431,160,334
7.641918420791626,121,42,85,147,73,502,132,218
7.656956672668457,114,60,114,152,75,635,149,213
7.679211854934692,124,82,166,230,72,827,233,326
7.710555791854858,164,137,235,309,75,964,531,592
7.725279331207275,203,188,281,379,76,1180,704,799
7.74186897277832,217,233,353,495,132,1271,754,852
7.761831521987915,217,233,375,532,144,1289,757,853
7.777595281600952,230,230,363,520,144,1285,762,820
7.799319267272949,330,215,333,486,145,1202,609,711
7.821725130081177,398,177,307,443,145,987,458,570
7.83663010597229,417,113,222,321,99,832,433,505
7.859065532684326,423,105,165,242,78,663,419,510
7.882022857666016,420,99,145,198,77,402,374,519
7.898514747619629,339,70,124,186,72,345,356,444
7.919339895248413,237,60,86,156,75,267,272,318
7.941651344299316,187,54,101,120,85,168,148,291
7.95660662651062,171,52,103,115,100,145,163,311
7.979165077209473,147,56,113,128,103,171,177,284
8.002661943435669,116,53,109,143,104,176,160,273
8.016734600067139,91,62,122,303,101,266,167,248
8.039447784423828,115,122,148,385,92,504,276,407
8.061885356903076,152,160,210,463,79,675,404,550
8.078319787979126,164,185,235,535,77,794,445,616
8.099430322647095,176,220,366,686,100,878,543,754
8.122278451919556,191,234,384,691,102,956,577,804
8.145112991333008,207,213,380,652,103,894,570,752
8.159958362579346,343,194,361,602,99,798,509,768
8.190840005874634,502,178,344,549,95,678,494,828
8.204630851745605,525,142,209,333,68,582,411,718
8.219485521316528,524,114,172,184,63,406,358,673
8.242465257644653,518,107,144,167,59,313,302,657
8.264169931411743,452,92,113,163,80,239,246,491
8.282106876373291,266,75,116,116,87,207,181,259
8.301945686340332,215,55,102,110,87,139,111,216
8.324172973632812,206,51,134,134,88,179,129,189
8.339779138565063,199,54,139,156,88,210,154,218
8.361738204956055,146,72,151,199,71,383,190,284
8.384527444839478,141,93,195,271,64,589,277,386
8.399210691452026,162,130,213,356,70,758,418,528
8.421628475189209,195,155,243,446,75,879,521,657
8.444223165512085,235,174,350,574,78,1029,603,753
8.45914340019226,239,172,358,590,81,1038,666,803
8.481817245483398,242,165,338,572,82,1092,647,773
8.504268169403076,359,144,331,538,82,1010,588,758
8.519339323043823,525,134,304,472,77,911,523,699
8.541629076004028,540,112,187,311,69,740,431,608
8.564711332321167,542,107,162,259,73,658,309,546
8.582399606704712,556,102,159,232,79,353,288,525
8.601976156234741,492,93,149,199,75,270,253,434
8.624356269836426,319,65,133,172,86,207,190,357
8.63913893699646,260,60,112,144,92,158,148,305
8.66163158416748,245,56,109,133,90,165,135,223
8.684437036514282,204,52,104,149,88,162,111,209
8.701689958572388,170,53,103,145,87,166,92,154
8.721962928771973,110,56,113,173,73,266,130,166
8.744104385375977,123,109,133,229,69,437,249,293
8.760194778442383,134,195,253,451,63,575,370,451
8.782232284545898,165,244,286,503,78,719,469,581
8.804330587387085,178,257,345,563,98,844,535,722
8.819945335388184,187,273,359,642,110,870,576,747
8.841746807098389,197,257,350,642,114,910,559,715
8.864036321640015,306,203,289,514,121,843,500,736
8.87970232963562,518,150,265,471,109,732,480,669
8.901885509490967,552,140,188,407,90,582,411,531
8.924351692199707,553,122,151,254,81,502,357,494
8.939390659332275,549,121,150,203,74,249,319,492
8.961734056472778,494,114,119,191,68,180,299,311
8.984328269958496,259,103,103,157,69,117,178,252
9.000165462493896,162,84,83,131,78,99,155,215
9.025366067886353,152,57,82,117,75,94,113,217
9.044209241867065,134,50,80,109,85,118,112,192
9.05998420715332,135,50,84,114,79,191,103,183
9.081636428833008,102,51,101,161,76,273,139,223
9.104318857192993,113,120,197,284,70,446,344,325
9.126890897750854,115,140,229,392,69,571,391,393
9.141733407974243,129,150,270,462,57,671,456,465
9.164186477661133,201,186,323,625,75,850,593,565
9.187125444412231,214,202,324,631,87,923,609,575
9.20405888557434,309,178,281,605,121,887,556,568
9.22429609298706,414,164,262,547,125,834,536,549
9.247105360031128,468,156,218,500,130,761,486,556
9.261736631393433,642,123,142,283,129,544,328,495
9.284501075744629,654,101,120,252,123,370,328,475
9.307259798049927,617,87,114,199,95,285,272,433
9.325658559799194,566,91,107,190,94,226,249,382
9.344257593154907,571,94,110,162,89,208,247,280
9.367172718048096,353,79,88,127,81,219,237,241
9.385783433914185,334,76,118,141,88,246,166,244
9.4047372341156,330,79,131,162,81,270,159,230
9.426798343658447,309,66,128,176,74,301,155,247
9.445473670959473,233,114,244,267,76,436,339,374
9.464834928512573,203,141,276,348,74,548,412,444
9.486810445785522,194,203,344,510,73,646,527,601
9.502350091934204,217,221,367,577,77,751,623,708
9.524236679077148,209,229,407,596,79,886,655,763
9.546589851379395,200,215,363,592,76,878,617,742
9.561854124069214,291,211,347,570,77,833,574,702
9.584203720092773,367,156,275,433,69,765,473,575
9.606855392456055,435,134,241,332,71,655,371,475
9.622050523757935,460,124,168,286,65,458,329,377
9.645091772079468,456,113,145,216,67,364,268,323
9.666647911071777,402,93,132,155,63,295,245,293
9.681820631027222,332,81,116,123,65,241,233,258
9.704223871231079,260,67,102,115,61,241,171,170
9.726678848266602,224,59,93,107,62,191,128,147
9.74203610420227,214,53,77,97,62,149,85,103
9.764124393463135,211,43,68,77,68,139,69,91
9.78708004951477,207,43,73,93,63,146,68,89
9.810243844985962,156,46,118,138,65,322,71,88
9.825706958770752,140,80,159,231,65,641,178,274
9.855647563934326,134,116,205,337,67,750,254,367
9.871952056884766,182,154,272,483,66,836,498,645
9.888568878173828,200,185,324,629,72,931,583,762
9.907060146331787,197,197,317,697,87,970,674,843
9.930531740188599,210,192,307,694,97,1015,687,848
9.948192119598389,300,179,294,665,97,1007,676,832
9.967407703399658,414,157,241,579,100,1009,544,710
9.984602212905884,461,124,176,424,97,944,471,590
10.00442099571228,461,105,166,292,82,866,329,472
10.026994228363037,482,97,150,238,71,602,255,404
10.04994797706604,445,85,121,198,77,481,222,366
10.065371751785278,341,68,112,173,69,307,172,202
10.087283372879028,258,56,91,144,72,225,105,179
10.110207080841064,258,55,86,116,75,187,109,170
10.126854658126831,199,48,93,124,75,204,113,159
10.146926641464233,168,48,87,134,68,351,107,204
10.170371532440186,139,61,109,208,69,447,162,247
10.186167240142822,191,79,170,259,80,577,256,436
10.206864595413208,214,113,203,314,87,722,374,562
10.230220556259155,226,214,250,448,88,800,525,730
10.245219230651855,246,245,287,515,88,875,666,808
10.266826868057251,243,253,293,526,96,920,705,832
10.290012836456299,218,257,272,520,89,911,732,862
10.304316282272339,206,255,274,529,83,865,720,811
10.32668662071228,289,187,237,434,86,825,624,678
10.35037112236023,395,150,211,349,85,706,493,631
10.365176916122437,437,137,193,295,73,594,440,608
10.38675856590271,554,126,187,296,72,500,368,456
10.410238027572632,658,112,164,313,75,391,304,453
10.424845218658447,649,102,169,394,71,288,314,458
10.446519136428833,587,96,153,518,76,236,291,392
10.469218254089355,563,90,156,535,86,208,263,441
10.484034776687622,517,104,167,590,97,180,356,504
10.50689172744751,387,115,167,617,103,160,339,471
10.529513835906982,350,120,164,605,133,173,401,447
10.544102191925049,372,118,155,517,147,159,403,429
10.567141771316528,366,124,149,529,145,154,415,360
10.590654134750366,254,108,129,498,139,141,317,241
10.605273246765137,252,87,105,423,135,116,317,231
10.626908302307129,283,77,86,359,107,92,212,233
10.650764226913452,240,81,82,341,94,91,192,221
10.666547536849976,238,65,79,370,92,78,149,196
10.687411546707153,234,60,71,311,87,73,140,219
10.709977149963379,234,59,73,299,84,79,145,218
10.7260582447052,178,57,63,288,82,75,131,186
10.746760845184326,181,56,63,307,65,74,126,180
10.770218849182129,168,56,57,261,61,77,124,167
10.78582501411438,207,56,58,256,57,74,130,128
10.807078123092651,175,55,60,247,53,69,110,134
10.830319881439209,166,51,58,281,47,64,103,146
10.848366975784302,161,46,55,256,46,61,96,160
10.867264986038208,162,40,52,208,41,61,102,163
10.889872074127197,122,41,44,212,41,55,105,153
10.905673027038574,118,38,43,222,39,55,120,156
10.926586866378784,123,37,43,176,38,54,122,142
10.949991464614868,124,53,43,187,40,52,124,127
10.965742588043213,118,60,42,188,38,50,121,131
10.986719131469727,93,56,43,171,40,47,118,130
11.010323524475098,95,57,39,162,39,43,111,133
11.032999515533447,94,59,39,162,42,47,114,136
11.048181772232056,96,51,44,203,39,58,119,136
11.070054292678833,94,42,46,186,41,57,123,127
11.092493295669556,106,42,46,193,40,58,121,148
11.106866598129272,101,42,47,188,45,58,115,131
11.130082368850708,98,38,47,199,44,61,110,128
11.152664422988892,97,32,42,149,48,50,107,132
11.167321920394897,104,31,40,146,49,50,98,144
11.190143823623657,108,31,42,132,51,49,88,114
11.21296501159668,106,32,41,165,44,51,71,103
11.227312564849854,105,31,46,160,50,44,75,118
11.250410556793213,106,30,44,157,48,48,85,116
11.27250862121582,109,33,43,165,46,48,102,103
11.288720846176147,93,32,40,163,45,48,102,103
11.30980634689331,89,34,42,133,46,45,102,120
11.332784652709961,97,36,39,148,38,49,98,99
11.349592447280884,114,36,44,144,37,44,95,95
11.370464563369751,107,32,45,138,42,45,100,89
11.392400026321411,116,33,44,147,42,44,98,120
11.409565925598145,117,31,42,147,43,43,98,102
11.430322170257568,113,35,42,139,42,39,98,102
11.45281195640564,93,35,36,150,44,42,88,98
11.475554704666138,102,36,42,147,40,45,59,97
11.49097466468811,102,39,44,137,39,56,73,52
11.512279748916626,112,40,44,130,41,55,81,51
11.527221202850342,111,37,41,132,45,56,83,48
11.549928903579712,118,38,44,128,44,56,86,48
11.572507381439209,126,39,39,119,45,52,93,50
11.587063789367676,138,36,44,121,43,40,71,60
11.60990023612976,129,34,50,118,42,38,60,58
11.632327318191528,125,34,55,91,41,43,53,57
11.646934509277344,117,34,55,73,41,75,50,58
11.669802188873291,100,33,55,103,53,79,34,52
11.692385196685791,65,37,61,104,76,125,52,45
11.70734691619873,59,44,59,105,83,173,83,58
11.729173183441162,62,52,62,127,87,294,105,73
11.752625226974487,72,63,68,151,87,480,190,128
11.76797080039978,104,86,78,166,85,652,307,232
11.789201974868774,117,93,107,175,70,733,376,329
11.81251335144043,129,108,175,292,82,820,470,421
11.828773260116577,148,116,189,323,89,898,503,507
11.849161386489868,150,121,200,322,94,954,517,603
11.872576236724854,129,116,218,352,101,939,482,592
11.887383699417114,122,114,211,389,107,977,440,569
11.909324169158936,112,104,175,327,104,1002,350,529
11.933326482772827,88,97,161,311,98,992,301,456
11.955380201339722,94,88,144,311,97,940,245,326
11.971437215805054,99,91,141,305,95,967,252,385
11.992486476898193,92,90,155,289,89,886,238,355
12.01483702659607,92,90,151,352,77,793,232,358
12.030295610427856,95,94,153,349,73,704,280,426
12.05263376235962,86,95,156,342,77,687,314,453
12.07500958442688,83,86,140,346,68,555,285,384
12.090272188186646,82,85,124,345,64,588,284,386
12.112404108047485,82,88,118,295,65,616,304,389
12.135142803192139,73,81,120,307,65,629,267,316
12.149601697921753,72,79,123,319,58,660,218,273
12.172574520111084,66,77,118,292,58,699,212,272
12.195542573928833,70,96,125,356,59,726,239,277
12.210448980331421,65,89,116,341,56,713,211,229
12.232424020767212,77,87,124,323,55,759,231,240
12.255013942718506,74,87,121,318,50,660,228,234
12.269590616226196,85,92,120,330,44,611,221,228
12.292603492736816,81,77,114,313,50,584,208,280
12.314921140670776,91,88,123,327,54,676,289,331
12.329313516616821,78,86,111,326,54,595,267,314
12.35274863243103,77,84,133,364,57,587,259,304
12.375383615493774,70,86,147,428,57,621,275,306
12.389924764633179,71,81,142,381,48,551,261,248
12.412782669067383,61,67,134,364,44,387,146,164
12.435010433197021,62,70,142,393,46,420,170,168
12.449171543121338,66,73,126,358,41,419,176,164
12.472946166992188,58,58,108,246,40,368,157,159
12.496142148971558,57,56,99,216,38,387,151,156
12.51069164276123,58,61,127,250,39,435,165,161
12.532829523086548,58,58,122,197,33,385,133,142
12.555499076843262,54,55,128,223,35,382,121,135
12.57388949394226,56,57,125,237,41,329,104,132
12.592591762542725,55,62,145,257,43,394,118,139
12.614778995513916,60,69,141,321,42,358,139,193
12.630533933639526,59,70,150,343,48,364,133,193
12.653063297271729,59,69,146,351,52,377,139,191
12.675001382827759,55,70,160,352,48,393,139,207
12.691253423690796,63,68,147,359,48,379,145,209
12.712670803070068,59,57,131,273,47,351,115,171
12.735128164291382,59,66,148,274,45,347,114,171
12.748802423477173,55,64,152,266,42,331,112,175
12.773634433746338,60,63,139,257,46,321,112,155
12.795220613479614,58,62,137,227,47,241,92,148
12.80965280532837,52,60,140,240,47,234,75,116
12.833024978637695,53,53,121,224,44,236,77,113
12.863481998443604,54,53,112,188,43,246,77,110
12.88038158416748,51,53,131,190,40,273,81,108
12.895761489868164,43,55,141,251,39,271,75,100
12.914969205856323,48,60,151,269,36,314,80,104
12.937462091445923,58,55,149,261,37,331,95,127
12.952491044998169,59,59,144,260,35,331,94,127
12.975317001342773,63,60,133,283,36,345,93,131
12.998052597045898,64,64,144,286,36,350,101,128
13.01534366607666,64,63,129,266,45,317,100,129
13.035081386566162,59,62,115,251,48,314,101,130
13.058013439178467,64,62,120,262,48,301,100,144
13.072173357009888,65,59,123,291,52,303,106,150
13.095382928848267,64,48,107,260,50,337,110,152
13.11808729171753,69,54,107,267,46,354,117,157
13.139919757843018,71,57,119,293,44,403,121,167
13.155714988708496,64,54,126,302,44,396,121,152
13.178098917007446,61,81,123,322,42,393,122,143
13.194902896881104,63,83,126,315,44,392,117,149
13.215490341186523,59,79,145,344,42,403,117,155
13.237529516220093,57,81,153,357,41,392,116,142
13.253256559371948,64,90,162,365,45,489,156,173
13.275351524353027,62,71,185,326,47,523,158,177
13.297982692718506,62,70,176,322,46,522,161,168
13.314393758773804,67,71,165,279,49,509,158,170
13.33516812324524,91,66,153,260,49,477,151,167
13.358155727386475,134,54,135,224,51,378,113,184
13.37395977973938,168,53,90,201,46,273,101,180
13.394941329956055,173,59,110,221,47,215,100,183
13.418359279632568,176,55,107,223,50,292,101,174
13.432626247406006,171,56,105,199,52,306,93,166
13.45551323890686,145,57,104,203,49,323,86,134
13.477270126342773,129,53,103,179,51,325,81,141
13.492457866668701,130,47,83,140,51,319,66,134
13.514925718307495,127,47,82,142,48,237,50,132
13.537550449371338,144,47,77,132,51,190,44,126
13.552612543106079,153,44,72,113,51,155,40,95
13.574856281280518,136,43,66,109,49,145,34,64
13.59742546081543,142,45,69,136,55,149,34,64
13.613001823425293,152,46,63,130,54,160,53,70
13.634873867034912,140,47,67,143,55,226,65,75
13.657630205154419,126,54,85,239,54,399,139,106
13.671871423721313,131,62,96,276,58,567,195,133
13.695391654968262,121,68,129,288,54,709,254,239
13.71774172782898,107,77,148,305,65,820,291,263
13.732429504394531,90,80,170,322,69,906,315,268
13.755273580551147,90,83,177,308,76,938,310,303
13.777790307998657,91,91,189,335,81,918,306,298
13.794716358184814,91,87,189,378,79,870,272,237
13.815297365188599,91,92,212,479,107,905,274,244
13.838078260421753,90,91,219,484,104,894,273,243
13.85980749130249,100,95,229,477,100,930,259,209
13.875622987747192,97,87,229,469,100,1002,236,230
13.897852897644043,91,91,251,506,100,1058,263,249
13.920206785202026,93,84,234,408,60,1043,267,274
13.935956954956055,92,87,231,404,71,1037,254,278
13.957758903503418,85,99,254,461,70,1032,291,300
13.979897737503052,81,106,268,468,67,966,304,295
13.995237588882446,87,112,256,456,68,892,300,281
14.017788887023926,111,109,256,469,69,863,276,232
14.039932012557983,117,113,250,510,58,898,279,250
14.05513072013855,118,107,247,484,60,833,266,220
14.077419519424438,116,101,220,471,56,814,275,227
14.09982419013977,115,98,194,404,56,876,270,278
14.115310668945312,88,104,205,419,58,816,269,282
14.137375593185425,84,104,210,404,55,732,267,271
14.159943580627441,76,92,189,378,53,767,245,265
14.175124406814575,74,88,194,347,55,727,221,253
14.197808742523193,81,92,208,370,54,691,203,183
14.220176219940186,89,95,232,385,51,759,194,171
14.234824895858765,96,104,236,424,49,768,208,188
14.257489919662476,102,107,224,424,48,682,204,213
14.2802894115448,116,110,231,452,48,696,197,207
14.295084476470947,111,107,234,468,45,643,200,210
14.317774057388306,103,100,202,438,46,589,196,216
14.340503454208374,101,82,183,366,47,585,194,224
14.355212211608887,98,80,178,370,52,617,202,209
14.377479553222656,93,88,206,391,50,596,204,221
14.400401592254639,92,97,198,418,55,662,219,246
14.414649963378906,97,96,195,421,54,641,234,245
14.437349319458008,92,97,197,406,53,591,211,242
14.46000051498413,101,97,219,406,48,547,199,234
14.47771668434143,89,103,210,456,49,566,211,252
14.497400283813477,85,91,205,408,49,461,182,224
14.527458667755127,99,88,194,382,46,417,192,282
14.541884422302246,102,88,188,392,46,461,189,262
14.565004348754883,88,93,163,465,45,547,193,260
14.582860469818115,91,81,135,377,43,635,178,230
14.597923517227173,103,76,126,371,36,663,174,231
14.6176176071167,95,79,128,380,39,661,135,159
14.639861345291138,91,80,144,420,43,651,136,145
14.655881881713867,102,71,139,310,45,614,127,138
14.677756547927856,133,63,127,298,45,478,116,137
14.70044231414795,134,62,154,300,48,454,118,136
14.717906475067139,137,62,150,297,47,447,109,112
14.738364458084106,157,58,130,210,48,405,93,107
14.760102033615112,181,52,123,195,48,324,84,103
14.782296419143677,161,52,121,196,48,353,80,98
14.80537223815918,157,56,94,174,49,328,76,84
14.819979906082153,155,54,117,162,52,300,63,85
14.842591047286987,139,59,130,188,55,398,82,95
14.86120057106018,99,67,157,214,54,407,87,100
14.879839181900024,96,68,153,203,53,382,88,95
14.902478694915771,92,64,165,237,53,368,87,99
14.9180006980896,112,65,148,244,50,385,91,100
14.939842700958252,114,60,139,226,40,337,85,99
14.962655544281006,140,53,113,210,41,326,83,96
14.979793548583984,159,55,119,217,43,318,76,95
14.999960660934448,169,50,100,170,44,305,72,89
15.022716045379639,182,47,99,170,44,293,65,75
15.037500858306885,206,47,96,160,50,209,45,63
15.05984902381897,195,46,86,147,52,196,38,62
15.082618713378906,196,44,74,128,51,172,35,62
15.099881410598755,192,56,64,95,52,144,34,61
15.120161771774292,207,54,62,49,52,104,32,59
15.141791820526123,191,57,60,44,52,79,34,51
15.160375118255615,188,59,56,44,55,65,34,46
15.182977676391602,170,59,57,44,61,61,37,44
15.201967477798462,161,48,47,43,62,54,36,39
15.220543384552002,110,48,43,44,74,56,34,39
15.242870569229126,109,42,38,45,84,52,29,42
15.261626243591309,132,38,39,40,97,41,27,48
15.280386686325073,136,33,41,41,98,35,23,49
15.304089546203613,138,30,42,41,99,35,24,46
15.321766376495361,143,30,42,40,92,28,24,47
15.34033989906311,136,31,47,54,84,31,23,48
15.363348960876465,122,32,46,99,67,36,25,60
15.381953239440918,179,46,58,250,73,46,30,84
15.400822401046753,264,72,88,276,81,71,85,194
15.423400640487671,285,87,116,390,91,107,184,216
15.44197702407837,289,112,154,553,104,143,210,231
15.46061372756958,286,116,160,617,110,151,220,229
15.483546495437622,258,112,157,652,136,155,223,226
15.501989603042603,176,100,146,672,136,148,210,148
15.524171352386475,127,89,129,623,135,127,145,116
15.543294429779053,103,55,79,497,130,85,106,81
15.56180214881897,93,46,72,503,161,74,88,72
15.584460020065308,76,43,70,412,139,67,81,57
15.603251457214355,62,38,64,376,146,61,76,48
15.621735572814941,55,37,55,370,149,57,45,39
15.644521951675415,50,36,54,355,151,53,41,35
15.662883520126343,46,32,46,206,116,40,33,34
15.682044982910156,43,32,45,239,112,36,28,35
15.704296827316284,44,33,41,218,113,36,28,32
15.722771406173706,44,31,39,201,107,35,25,31
15.741712093353271,44,30,32,198,95,34,22,32
15.764455318450928,43,28,31,190,94,34,21,31
15.784219980239868,40,25,30,110,92,27,21,27
15.802095651626587,28,22,34,94,68,25,23,23
15.823982238769531,23,23,34,93,61,23,23,22
15.84290885925293,26,21,34,82,70,21,23,21
15.8618004322052,24,24,33,75,70,21,24,21
15.884158372879028,25,22,31,36,68,22,25,22
15.90292501449585,23,21,24,34,69,21,24,23
15.921797752380371,25,20,27,34,77,30,27,24
15.94463062286377,24,21,27,34,71,33,29,27
15.962941884994507,25,18,29,33,71,56,29,26
15.981955766677856,27,23,27,32,80,70,33,28
16.004428148269653,28,25,28,32,85,104,36,28
16.023083448410034,29,27,29,30,77,113,36,33
16.04213285446167,93,39,30,33,78,129,38,36
16.064481019973755,96,41,31,34,79,130,40,39
16.082903146743774,106,40,34,38,67,129,41,40
16.101812839508057,110,46,39,41,67,105,38,41
16.124435663223267,111,46,41,40,65,96,39,39
16.14344835281372,72,38,41,41,64,76,35,35
16.161834955215454,69,37,40,42,57,58,32,32
16.18449354171753,52,35,35,40,61,43,27,30
16.203429222106934,42,26,28,38,56,39,25,28
16.2216374874115,40,24,28,38,57,36,22,26
16.24407124519348,29,21,26,36,58,30,23,25
16.263108015060425,26,21,25,33,60,26,23,28
16.28167223930359,25,21,27,30,60,26,23,27
16.312143087387085,24,23,29,28,59,25,25,26
16.329551696777344,22,22,25,27,55,23,22,27
16.34810185432434,23,24,27,27,50,20,25,27
16.367645502090454,23,23,33,29,47,21,26,23
16.383152723312378,22,23,33,30,40,21,28,23
16.401826858520508,23,22,34,30,35,20,26,23
16.42447543144226,24,24,34,29,33,20,31,20
16.442755937576294,24,24,36,28,35,21,28,19
16.469485759735107,25,24,33,26,35,20,28,22
16.486222505569458,25,24,31,27,36,20,29,24
16.50326180458069,25,25,32,25,39,21,29,27
16.521694898605347,24,24,31,27,40,21,27,26
16.545031785964966,24,24,26,27,44,20,29,26
16.5628764629364,24,23,26,26,43,21,27,26
16.581624269485474,24,25,28,25,43,18,24,26
16.604458808898926,23,25,27,28,43,19,24,26
16.623140811920166,23,24,29,27,40,19,23,29
16.641857147216797,24,23,33,26,34,19,22,28
16.66553258895874,24,26,33,28,41,22,23,28
16.687317609786987,26,24,33,27,41,22,22,27
16.701847553253174,26,24,32,28,45,21,23,24
16.724268436431885,25,26,30,28,49,22,23,22
16.746570348739624,24,26,29,29,51,25,24,22
16.76255440711975,24,24,27,28,46,23,24,18
16.771430015563965,24,24,27,28,46,23,24,18
